Time,position,velocity,acceleration,Force,Mass
0.0,0.2619335,2.619335,26.19335,1309.6675,50.0
0.1,0.7865185744476335,5.245850744476336,26.265157444763357,1310.6313564936916,49.9
0.2,1.5744693948642858,7.879508204166523,26.33657459690187,1311.561414925713,49.8
0.30000000000000004,2.6264961526144783,10.520267577501924,26.407593733354005,1312.457408547694,49.7
0.4,3.9433049823744213,13.168088297599429,26.478207200975042,1313.3190771683621,49.6
0.5,5.525597886337753,15.822929039633317,26.548407420338886,1314.146167306775,49.5
0.6,7.3740726591966546,18.484747728589017,26.618186889556995,1314.9384323441154,49.4
0.7,9.489422813936677,21.153501547400232,26.687538188112146,1315.6956326739287,49.3
0.7999999999999999,11.872337508483751,23.82914694547074,26.756453980705064,1316.4175358506893,49.2
0.8999999999999999,14.523501473241943,26.511639647581912,26.82492702111173,1317.103916736586,49.1
0.9999999999999999,17.443594939560626,29.20093466318682,26.892950156049075,1317.7545576464047,49.0
1.0999999999999999,20.63329356916978,31.896986296091526,26.960516329047056,1318.369248490401,48.9
1.2,24.093268384622178,34.59974815452399,27.02761858432466,1318.9477869150433,48.8
1.3,27.824185700781253,37.309173161590756,27.094250070667595,1319.489978441512,48.7
1.4000000000000001,31.826707057393385,40.0252135661213,27.160404045305476,1319.9956366018462,48.6
1.5000000000000002,36.10148915278337,42.7478209538999,27.22607387778595,1320.4645830726186,48.5
1.6000000000000003,40.649183778711794,45.47694625928425,27.29125305384353,1320.8966478060267,48.4
1.7000000000000004,45.47043775643283,48.212539777210324,27.355935179260747,1321.291669158294,48.3
1.8000000000000005,50.565892873991054,50.95455117558223,27.420113983719105,1321.6494940152609,48.2
1.9000000000000006,55.93618582479565,53.70292950804598,27.483783324637493,1321.9699779150635,48.1
2.0000000000000004,61.581948147510204,56.45762322714554,27.546937190995536,1322.2529851677857,48.0
2.1000000000000005,67.50380616729615,59.21858019785948,27.60956970713944,1322.498388971979,47.9
2.2000000000000006,73.70238093844777,61.98574771151627,27.671675136567902,1322.7060715279456,47.8
2.3000000000000007,80.17828818845635,64.75907250008582,27.733247885695473,1322.8759241476741,47.7
2.400000000000001,86.93213826354084,67.53850075084492,27.794282507590996,1323.0078473613314,47.6
2.500000000000001,93.96453607568222,70.32397812141377,27.854773705688547,1323.101751020206,47.5
2.600000000000001,101.27608105119828,73.11544975516061,27.91471633746836,1323.1575543960003,47.4
2.700000000000001,108.86736708089539,75.91286029697115,27.974105418105335,1323.1751862763822,47.3
2.800000000000001,116.73898247183334,78.7161539093794,28.032936124082493,1323.1545850566936,47.199999999999996
2.9000000000000012,124.89150990073895,81.5252742890561,28.091203796766976,1323.0956988277246,47.1
3.0000000000000013,133.325526369104,84.34016468365071,28.148903945946103,1322.9984854594668,47.0
3.1000000000000014,142.0416031600023,87.1607679089828,28.206032253320892,1322.8629126807498,46.9
3.2000000000000015,151.04030579666014,89.98702636657829,28.262584575954815,1322.6889581546852,46.8
3.3000000000000016,160.3221940028147,92.8188820615458,28.318556949675113,1322.4766095498276,46.699999999999996
3.4000000000000017,169.88782166489352,95.65627662078825,28.37394559242436,1322.2258646069752,46.6
3.5000000000000018,179.73773679604795,98.49915131154424,28.42874690755998,1321.936731201539,46.5
3.600000000000002,189.87248150207336,101.34744706025414,28.48295748709905,1321.6092274013959,46.4
3.700000000000002,200.29259194924782,104.20110447174478,28.53657411490639,1321.2433815201657,46.3
3.800000000000002,210.99859833412054,107.06006384872713,28.58959376982341,1320.8392321658414,46.199999999999996
3.900000000000002,221.9910248552806,109.92426521160068,28.64201362873553,1320.3968282847077,46.099999999999994
4.000000000000002,233.27038968713643,112.79364831855827,28.69383106957587,1319.91622920049,46.0
4.100000000000001,244.83720495573488,115.66815268598458,28.74504367426316,1319.3975046486792,45.9
4.200000000000001,256.69197671664904,118.54771760914173,28.79564923157146,1318.8407348059727,45.8
4.300000000000001,268.8352049349625,121.43228218313472,28.845645739929843,1318.246010314794,45.7
4.4,281.2673834673775,124.32178532414972,28.89503141014992,1317.6134323028364,45.6
4.5,293.9890000464733,127.21616579095762,28.94380466807904,1316.9431123975962,45.5
4.6,307.00053626714083,130.11536220667537,28.991964157177424,1316.235172735855,45.4
4.699999999999999,320.30246757521854,133.0193130807771,29.039508741017244,1315.489745968081,45.3
4.799999999999999,333.8952632583533,135.92795683134727,29.08643750570177,1314.7069752577202,45.2
4.899999999999999,347.77938643911006,138.84123180756757,29.132749762202973,1313.8870142753542,45.1
4.999999999999998,361.955294070353,141.75907631242913,29.178445048615625,1313.0300271877031,45.0
5.099999999999998,376.4234369329192,144.6814286256618,29.22352313232651,1312.1361886414604,44.900000000000006
5.1999999999999975,391.18425963560634,147.6082270268715,29.26798401209704,1311.2056837419475,44.800000000000004
5.299999999999997,406.23820061749404,150.5394098188773,29.311827920057784,1310.238708026583,44.7
5.399999999999997,421.5856921526179,153.47491535123865,29.355055323613513,1309.2354674331627,44.6
5.4999999999999964,437.2271603570144,156.41468204396438,29.397666927257387,1308.1961782629537,44.5
5.599999999999996,453.1630251981538,159.3586484113937,29.439663674293087,1307.1210671386132,44.400000000000006
5.699999999999996,469.3937005067778,162.30675308624004,29.48104674846356,1306.0103709569357,44.300000000000004
5.799999999999995,485.91959399115666,165.25893484378858,29.521817575485382,1304.864336836454,44.2
5.899999999999995,502.7411072537804,168.21513262623736,29.56197782448772,1303.6832220599088,44.10000000000001
5.999999999999995,519.8586358104977,171.17528556717284,29.601529409354853,1302.4672940116138,44.00000000000001
6.099999999999994,537.2725691121148,174.13933301616999,29.640474489971464,1301.2168301097474,43.900000000000006
6.199999999999994,554.9832905684655,177.10721456350697,29.678815473369955,1299.9321177336042,43.800000000000004
6.299999999999994,572.9911775749639,180.07887006498487,29.71655501477906,1298.613454145845,43.7
6.399999999999993,591.2966015416481,183.0542396668422,29.75369601857319,1297.2611464097913,43.60000000000001
6.499999999999993,609.8999279247236,186.0332638307544,29.79024163912204,1295.875511301809,43.50000000000001
6.5999999999999925,628.8015162606144,189.0158833589084,29.826195281539967,1294.4568752188347,43.400000000000006
6.699999999999992,648.0017202025286,192.0020394191419,29.861560602334958,1293.005574081104,43.30000000000001
6.799999999999992,667.5008875595424,194.9916735701376,29.89634150995689,1291.521953230138,43.20000000000001
6.8999999999999915,687.2993603382087,197.9847277866621,29.930542165244947,1290.0063673220575,43.10000000000001
6.999999999999991,707.3974747866926,200.98114448483952,29.964166981774227,1288.459180216292,43.00000000000001
7.099999999999991,727.7955614414375,203.9808665474497,29.997220626101615,1286.8807648597594,42.900000000000006
7.19999999999999,748.4939451763615,206.9838373492408,30.029708017911005,1285.2715031665914,42.80000000000001
7.29999999999999,769.4929452545862,209.99000078224663,30.061634330058236,1283.631785893487,42.70000000000001
7.39999999999999,790.792875382696,212.99930128109824,30.093004988516025,1281.9620125107829,42.60000000000001
7.499999999999989,812.394043767528,216.0116838483202,30.123825672219386,1280.2625910693243,42.500000000000014
7.599999999999989,834.2967531754882,219.0270940796014,30.15410231281212,1278.5339380632342,42.40000000000001
7.699999999999989,856.5013009943913,222.0454781890309,30.18384109429495,1276.7764782886768,42.30000000000001
7.799999999999988,879.0079792978202,225.0667830342885,30.21304845257609,1274.9906446987113,42.20000000000001
7.899999999999988,901.8170749119982,228.09095614178102,30.24173107492508,1273.176878254346,42.10000000000001
7.999999999999988,924.9288694851697,231.11794573171412,30.26989589933082,1271.335627771895,42.000000000000014
8.099999999999987,948.3436395594788,234.1477007430906,30.297550113764835,1269.467349766747,41.90000000000001
8.199999999999987,972.0616566453414,237.1801708586257,30.32470115535081,1267.5725082936642,41.80000000000001
8.299999999999986,996.0831872982984,240.2153065295699,30.351356709441742,1265.6515747837211,41.70000000000002
8.399999999999986,1020.4084931983415,243.25305900043048,30.37752470860587,1263.7050278780046,41.600000000000016
8.499999999999986,1045.0378312316998,246.29338033358277,30.403213331522846,1261.7333532581986,41.500000000000014
8.599999999999985,1069.9714535750759,249.33622343376194,30.428431001791584,1259.737043474172,41.40000000000001
8.699999999999985,1095.2096077823187,252.3815420724271,30.453186386651378,1257.7165977687023,41.30000000000001
8.799999999999985,1120.7525368735176,255.4292909119889,30.477488395617872,1255.6725218994568,41.20000000000002
8.899999999999984,1146.6004794265068,258.47942552989247,30.50134617903565,1253.6053279583657,41.100000000000016
8.999999999999984,1172.7536696707616,261.5319024425474,30.524769126549256,1251.51553418852,41.000000000000014
9.099999999999984,1199.2123375836713,264.58667912909686,30.547766865494463,1249.403664798724,40.90000000000002
9.199999999999983,1225.9767089891732,267.64371405501805,30.570349259211852,1247.2702497758441,40.80000000000002
9.299999999999983,1253.0470056587278,270.70296669554654,30.592526405284605,1245.115824695084,40.70000000000002
9.399999999999983,1280.4234454146194,273.7643975589168,30.6143086337027,1242.94093052833,40.600000000000016
9.499999999999982,1308.1062422355608,276.8279682094124,30.635706504955692,1240.746113450706,40.500000000000014
9.599999999999982,1336.0956063645826,279.89364129021806,30.656730808056253,1238.5319246454733,40.40000000000002
9.699999999999982,1364.3917444191893,282.96138054606774,30.677392558496855,1236.2989201074238,40.30000000000002
9.799999999999981,1392.9948595037574,286.0311508456819,30.697702996141846,1234.0476604449027,40.20000000000002
9.89999999999998,1421.9051513241561,289.10291820398766,30.717673583057508,1231.7787106806068,40.10000000000002
9.99999999999998,1451.1228163045678,292.1766498041159,30.737316001282462,1229.492640051299,40.00000000000002
10.09999999999998,1480.1970336241811,290.7421731961324,-14.344766079835386,-573.7906431934155,40.0
10.19999999999998,1509.1283773238445,289.31343699663375,-14.28736199498633,-571.4944797994532,40.0
10.29999999999998,1537.9174140399612,287.8903671611678,-14.230698354659717,-569.2279341863887,40.0
10.399999999999979,1566.564703120895,286.4728908093384,-14.17476351829364,-566.9905407317456,40.0
10.499999999999979,1595.0707967410833,285.0609362018827,-14.119546074557212,-564.7818429822885,40.0
10.599999999999978,1623.436240012912,283.65443271828843,-14.065034835942663,-562.6013934377065,40.0
10.699999999999978,1651.6615710964059,282.25331083493774,-14.011218833506849,-560.4487533402739,40.0
10.799999999999978,1679.747321306782,280.857502103762,-13.958087311757605,-558.3234924703042,40.0
10.899999999999977,1707.6940152199213,279.466939131394,-13.905629723680239,-556.2251889472095,40.0
10.999999999999977,1735.5021707758017,278.081555558804,-13.85383572589991,-554.1534290359964,40.0
11.099999999999977,1763.1722993799424,276.70128604140643,-13.80269517397556,-552.1078069590224,40.0
11.199999999999976,1790.7049060029049,275.3260662296243,-13.75219811782136,-550.0879247128544,40.0
11.299999999999976,1818.1004892778947,273.9558327498991,-13.70233479725169,-548.0933918900676,40.0
11.399999999999975,1845.359541596508,272.59052318613453,-13.653095637645896,-546.1238255058358,40.0
11.499999999999975,1872.4825492026641,271.23007606156165,-13.604471245729076,-544.178849829163,40.0
11.599999999999975,1899.4699922847656,269.8744308210151,-13.556452405465441,-542.2580962186177,40.0
11.699999999999974,1926.3223450661264,268.523527813609,-13.5090300740607,-540.361202962428,40.0
11.799999999999974,1953.0400758937067,267.177308275802,-13.462195378070291,-538.4878151228116,40.0
11.899999999999974,1979.6236473251909,265.83571431484097,-13.415939609610149,-536.637584384406,40.0
11.999999999999973,2006.0735162144483,264.49868889257425,-13.37025422266702,-534.8101689066808,40.0
12.099999999999973,2032.3901337954107,263.1661758096237,-13.325130829505236,-533.0052331802094,40.0
12.199999999999973,2058.5739457644013,261.838119689907,-13.280561197167165,-531.2224478866866,40.0
12.299999999999972,2084.6253923609515,260.51446596550056,-13.236537244064484,-529.4614897625794,40.0
12.399999999999972,2110.544908447135,259.1951608618348,-13.193051036657621,-527.7220414663049,40.0
12.499999999999972,2136.3329235854562,257.8801513832127,-13.150094786220697,-526.0037914488279,40.0
12.599999999999971,2161.9898621153206,256.56938529864374,-13.107660845689585,-524.3064338275834,40.0
12.69999999999997,2187.5161432281193,255.2628111279847,-13.06574170659049,-522.6296682636196,40.0
12.79999999999997,2212.9121810409574,253.96037812838,-13.024329996046806,-520.9731998418722,40.0
12.89999999999997,2238.178384669057,252.66203628099382,-12.983418473861946,-519.3367389544778,40.0
12.99999999999997,2263.3151582968594,251.36773627802623,-12.943000029675938,-517.7200011870375,40.0
13.09999999999997,2288.32290124786,250.07742951000685,-12.903067680193638,-516.1227072077455,40.0
13.199999999999969,2313.202008053196,248.7910680533586,-12.863614566482564,-514.5445826593026,40.0
13.299999999999969,2337.9528685190185,247.50860465822478,-12.824633951338274,-512.985358053531,40.0
13.399999999999968,2362.5758677926738,246.22999273655324,-12.786119216715406,-511.44476866861623,40.0
13.499999999999968,2387.071386427717,244.95518635043098,-12.748063861222528,-509.9225544489011,40.0
13.599999999999968,2411.439800447783,243.68414020066308,-12.710461497678946,-508.41845990715785,40.0
13.699999999999967,2435.681481409342,242.4168096155899,-12.673305850731742,-506.9322340292697,40.0
13.799999999999967,2459.7967964633553,241.15315054013675,-12.636590754531355,-505.4636301812542,40.0
13.899999999999967,2483.7861084158644,239.89311952509036,-12.60031015046405,-504.012406018562,40.0
13.999999999999966,2507.649775787524,238.6366737165964,-12.564458084939698,-502.5783233975879,40.0
14.099999999999966,2531.3881528721113,237.38377084587307,-12.529028707233305,-501.16114828933223,40.0
14.199999999999966,2555.0015897940248,236.13436921913518,-12.494016267378845,-499.7606506951538,40.0
14.299999999999965,2578.490432564797,234.8884277077238,-12.459415114113895,-498.3766045645558,40.0
14.399999999999965,2601.8550231386407,233.64590573843643,-12.42521969287371,-497.0087877149484,40.0
14.499999999999964,2625.095699467046,232.40676328405308,-12.391424543833377,-495.6569817533351,40.0
14.599999999999964,2648.212795552451,231.17096085405342,-12.358024299996732,-494.32097199986924,40.0
14.699999999999964,2671.206641501003,229.93845948552035,-12.325013685330749,-493.0005474132299,40.0
14.799999999999963,2694.0775635744258,228.70922073422594,-12.292387512944192,-491.6955005177677,40.0
14.899999999999963,2716.825884241015,227.483206665895,-12.260140683309334,-490.40562733237334,40.0
14.999999999999963,2739.451922225779,226.26037984764247,-12.228268182525532,-489.1307273010213,40.0
15.099999999999962,2761.9559925597373,225.04070333958012,-12.196765080623624,-487.87060322494494,40.0
15.199999999999962,2784.338406628396,223.82414068658912,-12.165626529909952,-486.62506119639806,40.0
15.299999999999962,2806.5994722194214,222.61065591025422,-12.134847763349052,-485.39391053396207,40.0
15.399999999999961,2828.739493569517,221.40021350095583,-12.104424092983892,-484.1769637193557,40.0
15.499999999999961,2850.7587714105284,220.19277841011655,-12.074350908392752,-482.9740363357101,40.0
15.59999999999996,2872.657603014788,218.98831604259837,-12.044623675181697,-481.7849470072679,40.0
15.69999999999996,2894.436282239713,217.78679224924718,-12.015237933511766,-480.6095173404707,40.0
15.79999999999996,2916.095099571671,216.5881733195812,-11.986189296659955,-479.4475718663982,40.0
15.89999999999996,2937.634342169133,215.39242597461987,-11.957473449613053,-478.2989379845221,40.0
15.99999999999996,2959.0542939051184,214.19951735985052,-11.9290861476936,-477.16344590774395,40.0
16.09999999999996,2980.355235408951,213.00941503832883,-11.901023215216972,-476.0409286086789,40.0
16.19999999999996,3001.5374441073423,211.82208698391094,-11.87328054417896,-474.93122176715843,40.0
16.29999999999996,3022.601194264804,210.63750157461365,-11.845854092972894,-473.83416371891576,40.0
16.399999999999963,3043.5467570234136,209.4556275861001,-11.818739885135683,-472.7495954054273,40.0
16.499999999999964,3064.3744004419423,208.2764341852879,-11.791934008121947,-471.6773603248779,40.0
16.599999999999966,3085.08438953435,207.09989092407736,-11.76543261210557,-470.6173044842228,40.0
16.699999999999967,3105.6769863076697,205.92596773319656,-11.739231908807962,-469.56927635231847,40.0
16.79999999999997,3126.152449799286,204.75463491616134,-11.713328170352332,-468.5331268140933,40.0
16.89999999999997,3146.511036113621,203.585863143347,-11.687717728143374,-467.508709125735,40.0
16.99999999999997,3166.752998458238,202.41962344616985,-11.662396971771642,-466.4958788708657,40.0
17.099999999999973,3186.8785871793757,201.25588721137564,-11.63736234794207,-465.49449391768275,40.0
17.199999999999974,3206.888049796919,200.09462617543304,-11.612610359426004,-464.5044143770401,40.0
17.299999999999976,3226.781631038822,198.93581241902942,-11.58813756403614,-463.5255025614456,40.0
17.399999999999977,3246.5595728749886,197.77941836166704,-11.563940573623837,-462.5576229449535,40.0
17.49999999999998,3266.222114550624,196.62541675635723,-11.54001605309822,-461.6006421239288,40.0
17.59999999999998,3285.769492619065,195.47378068441057,-11.516360719466551,-460.654428778662,40.0
17.69999999999998,3305.2019409740974,194.32448355032105,-11.492971340895341,-459.7188536358136,40.0
17.799999999999983,3324.5196908817716,193.17749907674187,-11.4698447357917,-458.79378943166796,40.0
17.899999999999984,3343.7229710117267,192.03280129955144,-11.446977771904413,-457.8791108761765,40.0
17.999999999999986,3362.8120074680273,190.890364563007,-11.424367365444285,-456.9746946177714,40.0
18.099999999999987,3381.787023819526,189.75016351498468,-11.402010480223264,-456.0804192089306,40.0
18.19999999999999,3400.648241129756,188.61217310230347,-11.379904126811914,-455.19616507247656,40.0
18.29999999999999,3419.395877986369,187.476368566132,-11.358045361714767,-454.3218144685907,40.0
18.39999999999999,3438.0301505301168,186.3427254374757,-11.336431286563137,-453.45725146252545,40.0
18.499999999999993,3456.551272483391,185.2112195327432,-11.315059047324986,-452.60236189299945,40.0
18.599999999999994,3474.9594551783302,184.08182694939006,-11.293925833531427,-451.75703334125706,40.0
18.699999999999996,3493.254907584494,182.95452406163812,-11.27302887751946,-450.9211551007784,40.0
18.799999999999997,3511.437836336121,181.82928751626906,-11.252365453690562,-450.09461814762244,40.0
18.9,3529.50844575897,180.7060942284906,-11.23193287778476,-449.27731511139035,40.0
19.0,3547.4669378967574,179.58492137787363,-11.21172850616983,-448.46914024679324,40.0
19.1,3565.313512537193,178.4657464043591,-11.191749735145239,-447.66998940580953,40.0
19.200000000000003,3583.0483672376267,177.34854700433306,-11.171994000260487,-446.8797600104195,40.0
19.300000000000004,3600.6716973503035,176.2333011267683,-11.152458775647577,-446.0983510259031,40.0
19.400000000000006,3618.1836960472465,175.11998696943158,-11.133141573367174,-445.325662934687,40.0
19.500000000000007,3635.584554344762,174.00858297515475,-11.114039942768233,-444.56159771072936,40.0
19.60000000000001,3652.8744611275793,172.89906782816868,-11.095151469860733,-443.8060587944293,40.0
19.70000000000001,3670.053603172629,171.79142045049855,-11.076473776701222,-443.0589510680489,40.0
